x,density
-15.0,6.771577473426323e-05
-14.832775919732441,7.310337271871758e-05
-14.665551839464882,7.872380688469961e-05
-14.498327759197325,8.43291755131901e-05
-14.331103678929766,8.9589710367194e-05
-14.163879598662207,9.413087041518007e-05
-13.996655518394649,9.760427801136313e-05
-13.82943143812709,9.976972096581751e-05
-13.662207357859533,0.00010055968411023215
-13.494983277591974,0.00010010398392109514
-13.327759197324415,9.870687463762449e-05
-13.160535117056856,9.678587546059516e-05
-12.993311036789297,9.47937366009386e-05
-12.826086956521738,9.314836114559264e-05
-12.65886287625418,9.219022366484914e-05
-12.491638795986622,9.217658075970288e-05
-12.324414715719064,9.331189162622758e-05
-12.157190635451505,9.58089415628649e-05
-11.989966555183948,9.997720107970311e-05
-11.822742474916389,0.00010634263059315786
-11.65551839464883,0.00011581197256908601
-11.488294314381271,0.0001298977738532498
-11.321070234113712,0.0001510104052118957
-11.153846153846153,0.00018279457401093962
-10.986622073578594,0.0002304407070332306
-10.819397993311036,0.0003008472886846964
-10.652173913043478,0.0004024729234711011
-10.48494983277592,0.0005447292448735943
-10.31772575250836,0.0007368551372058851
-10.150501672240804,0.0009863802084608404
-9.983277591973245,0.0012974886908733586
-9.816053511705686,0.0016697495804587077
-9.648829431438127,0.002097689231448134
-9.481605351170568,0.0025714954066583286
-9.31438127090301,0.00307879386948478
-9.14715719063545,0.003607062532696774
-8.979933110367893,0.00414601550324767
-8.812709030100335,0.004689314829033637
-8.645484949832776,0.00523523482675739
-8.478260869565219,0.005786270105550681
-8.31103678929766,0.006347966827365814
-8.143812709030101,0.006927370458368008
-7.976588628762542,0.00753145414785218
-7.809364548494983,0.008165823530403207
-7.642140468227424,0.008833950355813943
-7.474916387959866,0.009537132988725933
-7.3076923076923075,0.01027523205977588
-7.1404682274247495,0.011047968120635503
-6.973244147157191,0.011856308278202964
-6.806020066889632,0.012703381832601801
-6.638795986622073,0.013594529743146622
-6.471571906354516,0.014536411619072197
-6.304347826086957,0.015535371928634516
-6.137123745819398,0.016595390390722806
-5.969899665551839,0.017715975656860214
-5.80267558528428,0.018890453180711926
-5.6354515050167215,0.02010526522112155
-5.4682274247491645,0.02134093684507663
-5.301003344481606,0.022575001227468947
-5.133779264214047,0.023786404611312578
-4.966555183946488,0.024960106467402533
-4.799331103678929,0.02609031154240104
-4.632107023411372,0.02718130099358499
-4.464882943143813,0.028245888762616293
-4.297658862876254,0.02930244372388684
-4.130434782608695,0.03037165001410878
-3.9632107023411365,0.03147375044396899
-3.7959866220735794,0.03262644708701344
-3.6287625418060205,0.0338434232885899
-3.4615384615384617,0.03513363138073196
-3.294314381270903,0.036501639456732266
-3.127090301003344,0.03794906334014
-2.959866220735787,0.03947652690388693
-2.792642140468228,0.04108522173921273
-2.625418060200669,0.04277739533218248
-2.4581939799331103,0.044555829146987365
-2.2909698996655514,0.04642294347377203
-2.1237458193979926,0.04838008738009572
-1.9565217391304355,0.05042698674976725
-1.7892976588628766,0.05256088909122553
-1.6220735785953178,0.054775148722537685
-1.454849498327759,0.05705762140473659
-1.2876254180602,0.05938955899949065
-1.120401337792643,0.06174527087797442
-0.9531772575250841,0.06409205822236194
-0.7859531772575252,0.06638976724321785
-0.6187290969899664,0.06859022055315059
-0.4515050167224075,0.07063809895305988
-0.28428093645484864,0.07247516934194594
-0.11705685618729156,0.07404827499665416
0.0501672240802673,0.07531895271313103
0.21739130434782616,0.07627081173546446
0.384615384615385,0.07691141794187692
0.5518394648829439,0.07726814144087708
0.719063545150501,0.07738035370223645
0.8862876254180598,0.0772914880645164
1.0535117056856187,0.07704331573887875
1.2207357859531776,0.07667265734993713
1.3879598662207364,0.07620948368634649
1.5551839464882953,0.07567567886245075
1.7224080267558541,0.07508477782513549
1.889632107023413,0.07444333800611064
2.0568561872909683,0.07375377267703698
2.224080267558527,0.07301733646768478
2.391304347826086,0.07223578966170102
2.558528428093645,0.07141140216858619
2.7257525083612038,0.07054638466340951
2.8929765886287626,0.06964319046730766
3.0602006688963215,0.06870604633734291
3.2274247491638803,0.06774255098942022
3.394648829431439,0.06676366123282554
3.561872909698998,0.06578137456919624
3.729096989966557,0.06480504623722591
3.8963210702341122,0.06383815983779655
4.063545150501671,0.06287688647481625
4.23076923076923,0.06191055233768597
4.397993311036789,0.0609233427146203
4.565217391304348,0.05989671870827039
4.7324414715719065,0.0588125682039763
4.899665551839465,0.05765713179637567
5.066889632107024,0.056424975515728476
5.234113712374583,0.05512145044226331
5.401337792642142,0.05376218074321209
5.568561872909697,0.05236939272740561
5.735785953177256,0.0509665035520662
5.903010033444815,0.04957314380210373
6.070234113712374,0.04820221018028878
6.237458193979933,0.046859235376293884
6.404682274247492,0.045543393694608934
6.5719063545150505,0.04424939127532276
6.739130434782609,0.042969953873565545
6.906354515050168,0.04169883541659867
7.073578595317727,0.04043387036034175
7.240802675585286,0.0391790087599116
7.408026755852841,0.037944250642028804
7.5752508361204,0.03674321934573953
7.742474916387959,0.03558928560982528
7.909698996655518,0.034491836567794955
8.076923076923077,0.033454040018280784
8.244147157190636,0.032472588509204724
8.411371237458194,0.03153911595489855
8.578595317725753,0.030642700865256296
8.745819397993312,0.02977297094347382
8.913043478260871,0.028923368270505373
9.080267558528426,0.028093910859032067
9.247491638795985,0.027292539033531002
9.414715719063544,0.026534290370009646
9.581939799331103,0.02583824100684232
9.749163879598662,0.025223042404077765
9.91638795986622,0.024702426282637358
10.08361204013378,0.024281953193911746
10.250836120401338,0.02395770130683717
10.418060200668897,0.023716937042182203
10.585284280936456,0.023540362797860332
10.752508361204015,0.023405302568447486
10.91973244147157,0.023289043143864326
11.086956521739129,0.023171497208939067
11.254180602006688,0.02303654908365093
11.421404682274247,0.02287197011678261
11.588628762541806,0.022668450640044066
11.755852842809364,0.022418672733158992
11.923076923076923,0.022117145734295886
12.090301003344482,0.021760862632818182
12.257525083612041,0.021350193266791745
12.4247491638796,0.02088927375170245
12.591973244147159,0.020385545161627647
12.759197324414714,0.019848669321571737
12.926421404682273,0.01928934246598634
13.093645484949832,0.018718376446611597
13.26086956521739,0.01814605878461483
13.42809364548495,0.017581608212473482
13.595317725752508,0.017032661364219177
13.762541806020067,0.016504974505673828
13.929765886287626,0.016002594460915457
14.096989966555185,0.015528525372976271
14.264214046822744,0.015085569671101152
14.431438127090303,0.014676849688050107
14.598662207357858,0.01430566434349783
14.765886287625417,0.013974684003763841
14.933110367892976,0.013684789235387386
15.100334448160535,0.013433963444748469
15.267558528428093,0.013216589106720411
15.434782608695652,0.013023391721451767
15.602006688963211,0.012842174222211684
15.76923076923077,0.01265933187593299
15.936454849498329,0.012461886914467483
16.103678929765888,0.012239516101890596
16.270903010033443,0.011985952335768447
16.438127090301002,0.011699352454880655
16.60535117056856,0.011381658764786773
16.77257525083612,0.01103738176527686
16.93979933110368,0.010672352148739326
17.107023411371237,0.010292796668225876
17.274247491638796,0.009904776762680789
17.441471571906355,0.009513837346035484
17.608695652173914,0.009124744157205569
17.775919732441473,0.008741334951651327
17.94314381270903,0.008366586024416681
18.11036789297659,0.008002912306399407
18.27759197324415,0.007652553858413584
18.44481605351171,0.007317809159394888
18.612040133779267,0.007000942711167289
18.779264214046826,0.0067037720744743635
18.946488294314378,0.006427102509484692
19.113712374581937,0.00617023779733847
19.280936454849495,0.005930758419062382
19.448160535117054,0.005704681968055174
19.615384615384613,0.005487042969807016
19.782608695652172,0.005272838467772174
19.94983277591973,0.0050581631258686905
20.11705685618729,0.00484123396380259
20.28428093645485,0.004622961163673479
20.451505016722408,0.004406824401200104
20.618729096989966,0.004198046823896259
20.785953177257525,0.004002314645885659
20.953177257525084,0.003824441718089731
21.120401337792643,0.003667361618786312
21.287625418060202,0.0035316776183184056
21.45484949832776,0.0034158041355152368
21.62207357859532,0.003316573284914912
21.78929765886288,0.003230089801778133
21.956521739130437,0.003152592228658925
22.123745819397996,0.003081106976016206
22.290969899665555,0.0030137612518477525
22.458193979933114,0.0029497396100300645
22.625418060200666,0.0028889902820997317
22.792642140468224,0.0028318584934789006
22.959866220735783,0.0027788099632084172
23.127090301003342,0.0027303213297880497
23.2943143812709,0.0026869089304244176
23.46153846153846,0.002649199818732642
23.62876254180602,0.0026179421428483493
23.795986622073578,0.0025938902662094
23.963210702341136,0.002577553845649124
24.130434782608695,0.0025688525370028067
24.297658862876254,0.002566766363646369
24.464882943143813,0.002569108711631246
24.632107023411372,0.0025725505026492597
24.79933110367893,0.002572965092405028
24.96655518394649,0.002566048684617584
25.13377926421405,0.0025480499399991464
25.301003344481607,0.00251638452069696
25.468227424749166,0.0024699558946235517
25.635451505016725,0.0024091302649161843
25.802675585284284,0.0023354479453763072
25.969899665551843,0.0022512231164622406
26.137123745819395,0.0021591649597177383
26.304347826086953,0.002062080154496766
26.471571906354512,0.0019626485800269353
26.63879598662207,0.0018632390109068063
26.80602006688963,0.0017657467018235733
26.97324414715719,0.0016714610031027533
27.140468227424748,0.0015809838667264506
27.307692307692307,0.0014942163145100754
27.474916387959865,0.001410421480246907
27.642140468227424,0.0013283680366650238
27.809364548494983,0.0012465523053040055
27.976588628762542,0.001163481808154032
28.1438127090301,0.001077977524841476
28.31103678929766,0.0009894308717859452
28.47826086956522,0.0008979523888585044
28.645484949832777,0.0008043781938979118
28.812709030100336,0.0007101446256670687
28.979933110367895,0.0006170781262197625
29.147157190635454,0.0005271593189825653
29.314381270903013,0.0004423071046077488
29.481605351170572,0.00036420442929351477
29.648829431438124,0.0002941686741382108
29.816053511705682,0.00023306413593634576
29.98327759197324,0.00018125805630514352
30.1505016722408,0.0001386255689473824
30.31772575250836,0.00010460581609578201
30.484949832775918,7.830153524129648e-05
30.652173913043477,5.860357388493921e-05
30.819397993311036,4.431668089374587e-05
30.986622073578594,3.426634300257192e-05
31.153846153846153,2.7376102527806378e-05
31.321070234113712,2.2715415376835794e-05
31.48829431438127,1.9524815513786202e-05
31.65551839464883,1.7226038169410206e-05
31.82274247491639,1.5421316619269743e-05
31.989966555183948,1.3881732326530997e-05
32.15719063545151,1.2522416871676965e-05
32.324414715719065,1.1363838620027235e-05
32.491638795986624,1.0482431601494716e-05
32.65886287625418,9.958203030312896e-06
32.82608695652174,9.829464651975203e-06
32.9933110367893,1.0064245156910354e-05
33.16053511705685,1.0554321383874887e-05
33.32775919732441,1.1132241748855151e-05
33.49498327759197,1.1605830674132034e-05
33.66220735785953,1.1800161595229386e-05
33.82943143812709,1.159524212810932e-05
33.99665551839465,1.0949305312032708e-05
34.163879598662206,9.902225686437074e-06
34.331103678929765,8.559691828027992e-06
34.49832775919732,7.0642804488887795e-06
34.66555183946488,5.562631444374517e-06
34.83277591973244,4.17768015236288e-06
35.0,2.991865431009238e-06
